Single Spectrum_004_Spec.Data 1             
x       y           
[m<sup>-1</sup>]     [CCD cts]         
6667.1373  785.5            
6765.6872  785.20001            
6864.2238  785.59998            
6962.7473  784.90002            
7061.2577  785.40002            
7159.7549  785.70001            
7258.2389  785.79999            
7356.7098  786.09998            
7455.1675  785.59998            
7553.6121  785.90002            
7652.0435  785.40002            
7750.4618  785.20001            
7848.867  785.59998            
7947.259  785.5            
8045.6379  785.59998            
8144.0036  785.5            
8242.3562  785.40002            
8340.6957  785            
8439.022  784.90002            
8537.3352  785.5            
8635.6352  785.29999            
8733.9221  785.90002            
8832.1959  785.29999            
8930.4566  785.79999            
9028.7042  785.79999            
9126.9386  785.79999            
9225.1599  786            
9323.3681  786.59998            
9421.5631  787.79999            
9519.745  787.70001            
9617.9139  791.5            
9716.0696  791            
9814.2122  795.59998            
9912.3416  803.29999            
10010.458  816.59998            
10108.561  845.79999            
10206.651  892.59998            
10304.728  975.09998            
10402.792  1056.6            
10500.843  1129.3            
10598.881  1141.2            
10696.906  1124.3            
10794.917  1098.6            
10892.916  1077.5            
10990.901  1062.1            
11088.873  1053.3            
11186.832  1051.1            
11284.778  1062.5            
11382.711  1069.6            
11480.631  1078.2            
11578.538  1099.2            
11676.432  1117.9            
11774.312  1128.8            
11872.18  1141.3            
11970.034  1147.9            
12067.876  1142.5            
12165.704  1122.8            
12263.519  1124.7            
12361.322  1122.5            
12459.111  1103.9            
12556.887  1106            
12654.65  1116.1            
12752.399  1109.3            
12850.136  1098.4            
12947.86  1090.1            
13045.571  1091.4            
13143.268  1090.9            
13240.953  1085.6            
13338.624  1083.3            
13436.283  1080.1            
13533.928  1080            
13631.56  1081.4            
13729.18  1083.4            
13826.786  1091.4            
13924.379  1100.7            
14021.959  1124.8            
14119.526  1129            
14217.08  1125.2            
14314.621  1121.8            
14412.149  1114.7            
14509.664  1119.2            
14607.166  1126.7            
14704.655  1147.3            
14802.13  1158            
14899.593  1165.7            
14997.043  1180.3            
15094.479  1172.9            
15191.903  1179.7            
15289.314  1168.9            
15386.711  1151.8            
15484.096  1125.7            
15581.467  1109.5            
15678.826  1105.2            
15776.171  1095.5            
15873.504  1090.6            
15970.823  1078.9            
16068.13  1073.5            
16165.423  1077            
16262.703  1075.2            
16359.971  1071.2            
16457.225  1066.8            
16554.466  1071            
16651.695  1067.7            
16748.91  1061            
16846.112  1064.6            
16943.302  1053.8            
17040.478  1052.1            
17137.641  1054.8            
17234.792  1043.8            
17331.929  1037.3            
17429.053  1032.6            
17526.165  1041.4            
17623.263  1037.2            
17720.348  1033.8            
17817.42  1043.7            
17914.48  1045.9            
18011.526  1044.6            
18108.56  1041.2            
18205.58  1042.5            
18302.587  1036.8            
18399.582  1034.6            
18496.563  1036.7            
18593.532  1041.8            
18690.487  1046.4            
18787.43  1048.6            
18884.359  1048.1            
18981.276  1056.4            
19078.179  1054.1            
19175.07  1055.1            
19271.947  1066            
19368.812  1058.8            
19465.664  1058.9            
19562.503  1057.5            
19659.328  1060.6            
19756.141  1062.8            
19852.941  1064.9            
19949.728  1076            
20046.502  1076.7            
20143.263  1077.2            
20240.011  1073.7            
20336.746  1073.6            
20433.468  1067.4            
20530.177  1065.5            
20626.873  1079.5            
20723.557  1089.8            
20820.227  1082.3            
20916.884  1089.2            
21013.529  1088.8            
21110.16  1093.9            
21206.779  1097.2            
21303.384  1093.4            
21399.977  1099            
21496.557  1111.9            
21593.124  1115.3            
21689.677  1122            
21786.218  1121.1            
21882.746  1102.7            
21979.261  1104.4            
22075.764  1101.3            
22172.253  1095.3            
22268.729  1093            
22365.193  1071.3            
22461.643  1069.4            
22558.081  1059.8            
22654.505  1053.9            
22750.917  1058.2            
22847.316  1044.4            
22943.702  1041.8            
23040.075  1030.3            
23136.435  1023            
23232.782  1023.2            
23329.116  1033.1            
23425.437  1027            
23521.746  1010.3            
23618.041  1006            
23714.324  1011.3            
23810.594  999.40002            
23906.85  991.90002            
24003.094  992.90002            
24099.325  994            
24195.544  991.20001            
24291.749  989.79999            
24387.941  986.29999            
24484.121  984.20001            
24580.287  984.70001            
24676.441  977.70001            
24772.582  976.29999            
24868.71  974.5            
24964.825  982.59998            
25060.927  980.20001            
25157.016  973.90002            
25253.092  972            
25349.156  970.70001            
25445.207  969.5            
25541.244  974.40002            
25637.269  969.29999            
25733.281  971.29999            
25829.281  970.5            
25925.267  973            
26021.24  970.09998            
26117.201  966            
26213.148  959.79999            
26309.083  961.90002            
26405.005  965.59998            
26500.914  961.40002            
26596.811  960            
26692.694  962            
26788.565  962.59998            
26884.422  964.90002            
26980.267  962.40002            
27076.099  959            
27171.918  960.70001            
27267.725  965.40002            
27363.518  963.09998            
27459.299  959.29999            
27555.066  961            
27650.821  962.09998            
27746.563  957.5            
27842.293  961.5            
27938.009  961.70001            
28033.713  962.79999            
28129.403  962.59998            
28225.081  956.90002            
28320.746  954.79999            
28416.399  955            
28512.038  966.09998            
28607.665  965.29999            
28703.278  959            
28798.879  966.09998            
28894.467  967.29999            
28990.043  960            
29085.605  963            
29181.155  972.09998            
29276.692  975            
29372.216  967.79999            
29467.727  959            
29563.225  968.5            
29658.711  966.5            
29754.184  970.79999            
29849.644  975.59998            
29945.091  976.90002            
30040.525  972.90002            
30135.947  970.20001            
30231.355  975.79999            
30326.751  975.20001            
30422.134  973.90002            
30517.505  972.40002            
30612.862  963.5            
30708.207  968.20001            
30803.539  966.40002            
30898.858  973.20001            
30994.165  975.29999            
31089.458  965.29999            
31184.739  968.20001            
31280.007  970.5            
31375.262  967.29999            
31470.505  968.79999            
31565.734  968.20001            
31660.951  971.59998            
31756.156  970            
31851.347  967.70001            
31946.525  968.20001            
32041.691  966.20001            
32136.844  961.70001            
32231.984  964.90002            
32327.112  970.09998            
32422.227  962.09998            
32517.329  968            
32612.418  965.90002            
32707.494  970.90002            
32802.558  966            
32897.609  961.70001            
32992.647  959.59998            
33087.672  964.20001            
33182.685  962            
33277.685  965.09998            
33372.672  963            
33467.646  963.29999            
33562.608  962.5            
33657.557  966.29999            
33752.493  964.40002            
33847.416  965.90002            
33942.327  966.20001            
34037.224  962.70001            
34132.11  963.40002            
34226.982  965.79999            
34321.842  960.79999            
34416.689  960.59998            
34511.523  960.20001            
34606.344  969.79999            
34701.153  962.59998            
34795.949  968.79999            
34890.732  968.20001            
34985.503  966.59998            
35080.26  970.40002            
35175.005  977.20001            
35269.738  968.70001            
35364.457  967.09998            
35459.164  964.59998            
35553.858  970.20001            
35648.54  963.20001            
35743.208  962.09998            
35837.865  961            
35932.508  961.79999            
36027.138  967.70001            
36121.756  966.09998            
36216.361  962.09998            
36310.954  960.70001            
36405.534  968.29999            
36500.101  968.20001            
36594.655  970.20001            
36689.197  970.70001            
36783.726  974            
36878.242  976.40002            
36972.745  971.20001            
37067.236  964.5            
37161.714  957.29999            
37256.18  968.29999            
37350.632  971.09998            
37445.072  970.09998            
37539.5  975.40002            
37633.915  972.20001            
37728.316  978.20001            
37822.706  977.09998            
37917.082  978.90002            
38011.446  980.40002            
38105.798  986.59998            
38200.136  983.59998            
38294.462  977.29999            
38388.775  980.29999            
38483.076  982.40002            
38577.364  978.09998            
38671.639  977.40002            
38765.901  986.29999            
38860.151  988.09998            
38954.388  984.59998            
39048.613  978.09998            
39142.825  983.40002            
39237.024  980.40002            
39331.211  988.09998            
39425.384  981.29999            
39519.546  980.79999            
39613.694  982.40002            
39707.83  987.59998            
39801.953  989.40002            
39896.064  976.90002            
39990.162  978.29999            
40084.247  978            
40178.32  978.20001            
40272.38  981.40002            
40366.427  987.40002            
40460.462  989.09998            
40554.484  987.79999            
40648.493  991            
40742.49  987.5            
40836.474  990.09998            
40930.446  985.90002            
41024.404  985.09998            
41118.351  988.20001            
41212.284  985.59998            
41306.205  988            
41400.113  990.20001            
41494.009  989.79999            
41587.892  987.59998            
41681.763  989.5            
41775.62  991.90002            
41869.466  986            
41963.298  981.59998            
42057.118  989.90002            
42150.925  990.29999            
42244.72  991.5            
42338.502  986.90002            
42432.272  987.59998            
42526.029  989.79999            
42619.773  999.70001            
42713.504  996.70001            
42807.223  991.79999            
42900.93  987.59998            
42994.624  987.5            
43088.305  988.79999            
43181.973  995            
43275.629  993.59998            
43369.273  989.5            
43462.904  979            
43556.522  982.79999            
43650.127  983.79999            
43743.72  986.59998            
43837.301  986.09998            
43930.869  983.40002            
44024.424  987.29999            
44117.967  991.29999            
44211.497  989.59998            
44305.014  990.29999            
44398.519  993.29999            
44492.011  995.29999            
44585.491  989.5            
44678.958  993.20001            
44772.413  986.79999            
44865.855  983.09998            
44959.284  984.70001            
45052.701  985.79999            
45146.105  986.29999            
45239.497  980.5            
45332.876  983            
45426.243  991.29999            
45519.597  990.40002            
45612.938  985.5            
45706.267  984.29999            
45799.583  987.40002            
45892.887  985.70001            
45986.178  983.59998            
46079.457  983.59998            
46172.723  991.40002            
46265.976  994.70001            
46359.217  989.09998            
46452.445  987.70001            
46545.661  991.79999            
46638.865  997.70001            
46732.055  994.29999            
46825.233  992.5            
46918.399  994            
47011.552  996.09998            
47104.693  990.79999            
47197.821  990.70001            
47290.936  999.09998            
47384.039  1000.6            
47477.13  1002.2            
47570.207  1001.8            
47663.273  998.40002            
47756.325  992.59998            
47849.366  997.70001            
47942.393  1005            
48035.409  1002.4            
48128.411  1002.9            
48221.401  1002.3            
48314.379  999.59998            
48407.344  1002            
48500.297  1007.5            
48593.237  1013.3            
48686.164  1009.8            
48779.079  1007.1            
48871.982  1007.3            
48964.872  1010.3            
49057.749  1012.3            
49150.614  1023.3            
49243.467  1018.9            
49336.307  1018.6            
49429.134  1021.6            
49521.949  1023.7            
49614.751  1026.4            
49707.541  1026            
49800.319  1026.5            
49893.084  1022.5            
49985.836  1025.1            
50078.576  1020.3            
50171.303  1035            
50264.018  1029.6            
50356.721  1029.8            
50449.411  1037.5            
50542.088  1033.2            
50634.753  1029.7            
50727.406  1040.7            
50820.046  1035.1            
50912.673  1031.2            
51005.288  1036.9            
51097.891  1039.3            
51190.481  1038.2            
51283.058  1044.2            
51375.623  1049.4            
51468.176  1041.8            
51560.716  1039.8            
51653.244  1054.8            
51745.759  1046.1            
51838.262  1043.2            
51930.752  1044.6            
52023.23  1042.2            
52115.695  1048.8            
52208.148  1055.1            
52300.589  1056.4            
52393.016  1055.1            
52485.432  1058.5            
52577.835  1066.1            
52670.226  1051.3            
52762.604  1052.8            
52854.969  1060            
52947.323  1067            
53039.663  1066.7            
53131.992  1062.8            
53224.307  1050.3            
53316.611  1052.1            
53408.902  1059.5            
53501.18  1059.1            
53593.446  1059.8            
53685.7  1063.9            
53777.941  1052.6            
53870.17  1053.2            
53962.386  1057            
54054.59  1052.8            
54146.782  1059.9            
54238.961  1053.5            
54331.127  1056.9            
54423.281  1054            
54515.423  1049.2            
54607.552  1048            
54699.669  1048.5            
54791.774  1047.2            
54883.866  1042.1            
54975.945  1036.6            
55068.012  1038.6            
55160.067  1040.5            
55252.109  1052.7            
55344.139  1046.1            
55436.157  1053            
55528.162  1050.6            
55620.155  1041.9            
55712.135  1035.7            
55804.103  1034.7            
55896.058  1030.4            
55988.001  1035.7            
56079.932  1032.2            
56171.85  1028.8            
56263.756  1029.9            
56355.649  1034.3            
56447.53  1038            
56539.399  1031.6            
56631.255  1037.5            
56723.099  1041.1            
56814.93  1042.9            
56906.749  1042.4            
56998.556  1043.6            
57090.35  1044            
57182.132  1032.6            
57273.902  1035            
57365.659  1046.6            
57457.404  1044            
57549.136  1042.4            
57640.856  1038            
57732.563  1037.4            
57824.259  1037.2            
57915.941  1049.6            
58007.612  1045.4            
58099.27  1046.4            
58190.916  1047.8            
58282.549  1044.5            
58374.17  1048.3            
58465.779  1054.9            
58557.375  1055.6            
58648.959  1046.3            
58740.53  1036.8            
58832.089  1044            
58923.636  1051.1            
59015.171  1050.1            
59106.693  1054.7            
59198.202  1061.9            
59289.7  1052.2            
59381.185  1051.8            
59472.657  1053.4            
59564.118  1064.5            
59655.565  1074.4            
59747.001  1083            
59838.424  1073.7            
59929.835  1063            
60021.234  1061.7            
60112.62  1066.8            
60203.994  1058.5            
60295.355  1063.5            
60386.704  1082.3            
60478.041  1081.3            
60569.366  1072.7            
60660.678  1084            
60751.978  1089.4            
60843.265  1094.3            
60934.541  1090.9            
61025.803  1088.6            
61117.054  1099.2            
61208.292  1098.8            
61299.518  1095.3            
61390.732  1088.5            
61481.933  1093.1            
61573.122  1102.4            
61664.298  1104.6            
61755.463  1098.5            
61846.615  1100.6            
61937.754  1092.7            
62028.881  1098            
62119.996  1100.2            
62211.099  1115.4            
62302.19  1115.1            
62393.268  1116.9            
62484.333  1115.5            
62575.387  1115.4            
62666.428  1117.5            
62757.457  1121.2            
62848.474  1134.2            
62939.478  1148.4            
63030.47  1132.7            
63121.449  1120.3            
63212.417  1120.9            
63303.372  1129.9            
63394.315  1131.2            
63485.245  1135            
63576.163  1127.6            
63667.069  1144.1            
63757.963  1148.1            
63848.844  1149.9            
63939.713  1139.6            
64030.57  1138.2            
64121.415  1132.1            
64212.247  1142.5            
64303.067  1159.2            
64393.875  1157.7            
64484.67  1149.7            
64575.453  1135.1            
64666.224  1132.5            
64756.983  1123.4            
64847.729  1131.3            
64938.463  1124            
65029.185  1133.3            
65119.894  1133.5            
65210.591  1135.6            
65301.276  1128.4            
65391.949  1115.5            
65482.61  1112.9            
65573.258  1115.2            
65663.894  1105.6            
65754.517  1112.7            
65845.129  1096.6            
65935.728  1091.3            
66026.315  1101.5            
66116.89  1091.2            
66207.452  1087.3            
66298.002  1085.6            
66388.54  1089.6            
66479.066  1105.7            
66569.579  1106.8            
66660.08  1097.9            
66750.569  1095            
66841.046  1104.6            
66931.511  1112.9            
67021.963  1116.8            
67112.403  1117.7            
67202.831  1122.3            
67293.246  1129.7            
67383.65  1141.4            
67474.041  1151.6            
67564.42  1168.2            
67654.786  1179.8            
67745.141  1201            
67835.483  1221.1            
67925.813  1220            
68016.13  1239.8            
68106.436  1267.4            
68196.729  1307.1            
68287.01  1335.9            
68377.279  1349.2            
68467.536  1362.8            
68557.78  1370.1            
68648.013  1370.4            
68738.233  1389            
68828.44  1417.8            
68918.636  1379.6            
69008.819  1351.9            
69098.991  1306.7            
69189.15  1301.6            
69279.296  1304            
69369.431  1287.6            
69459.553  1244.5            
69549.664  1223.1            
69639.762  1195.1            
69729.848  1176.8            
69819.921  1154.3            
69909.983  1124.1            
70000.032  1115.3            
70090.069  1113.3            
70180.094  1105.4            
70270.106  1093.2            
70360.107  1077.4            
70450.095  1069.6            
70540.071  1061.1            
70630.035  1055.8            
70719.987  1044.3            
70809.927  1051.9            
70899.854  1049.1            
70989.769  1042.7            
71079.672  1026            
71169.563  1022.2            
71259.442  1018.3            
71349.308  1021.8            
71439.163  1019.2            
71529.005  1006.3            
71618.835  1010.3            
71708.653  1008.4            
71798.459  1009.3            
71888.252  1007.3            
71978.034  1005.3            
72067.803  1001.5            
72157.56  1002.6            
72247.305  989.5            
72337.038  980.70001            
72426.758  980.09998            
72516.467  985.79999            
72606.163  980.40002            
72695.847  982            
72785.519  984.59998            
72875.179  980.79999            
72964.827  975.5            
73054.463  982.59998            
73144.086  979.90002            
73233.697  971.59998            
73323.297  969.59998            
73412.884  972.20001            
73502.458  978.29999            
73592.021  977.70001            
73681.572  972.90002            
73771.11  963.70001            
73860.637  954.5            
73950.151  974.59998            
74039.653  962.09998            
74129.143  964.79999            
74218.621  964            
74308.087  961.90002            
74397.54  961.70001            
74486.982  960.79999            
74576.411  952.59998            
74665.828  953.79999            
74755.234  953.29999            
74844.627  958.70001            
74934.008  951.79999            
75023.376  954.59998            
75112.733  955.5            
75202.078  950.29999            
75291.41  953.09998            
75380.73  952.90002            
75470.039  942.90002            
75559.335  942.90002            
75648.619  940.20001            
75737.891  940.79999            
75827.151  946            
75916.398  944.70001            
76005.634  945.79999            
76094.858  945.70001            
76184.069  948.09998            
76273.269  951.40002            
76362.456  946.40002            
76451.631  944.5            
76540.794  940.5            
76629.945  940.70001            
76719.084  944            
76808.211  942.20001            
76897.326  942.70001            
76986.428  935.70001            
77075.519  937.70001            
77164.597  937.59998            
77253.664  935.29999            
77342.718  935.5            
77431.761  931.20001            
77520.791  933.09998            
77609.809  939.70001            
77698.815  944.59998            
77787.809  937.70001            
77876.791  936.20001            
77965.761  935.09998            
78054.719  934.20001            
78143.664  929            
78232.598  926.09998            
78321.52  930.40002            
78410.429  932.90002            
78499.327  932.70001            
78588.212  928.20001            
78677.085  940.70001            
78765.947  940.09998            
78854.796  941.59998            
78943.633  939.79999            
79032.458  934.90002            
79121.272  931.70001            
79210.073  932.79999            
79298.862  933.90002            
79387.639  936.59998            
79476.404  933.40002            
79565.156  935.79999            
79653.897  938.20001            
79742.626  935.20001            
79831.343  934.90002            
79920.048  933.5            
80008.74  938.20001            
80097.421  940            
80186.09  937.59998            
80274.746  934.20001            
80363.391  932.5            
80452.023  935.79999            
80540.644  935.29999            
80629.252  934.20001            
80717.849  929.79999            
80806.433  930.5            
80895.006  932.90002            
80983.566  931.90002            
81072.115  932.20001            
81160.651  927.5            
81249.175  922.5            
81337.688  922.40002            
81426.188  923.20001            
81514.676  923.70001            
81603.153  927            
81691.617  925.20001            
81780.069  927.59998            
81868.51  922.09998            
81956.938  920.20001            
82045.354  926.79999            
82133.758  933.20001            
82222.151  927.79999            
82310.531  929.09998            
82398.899  928            
82487.256  926.20001            
82575.6  923.5            
82663.932  922.79999            
82752.252  922.5            
82840.561  921.79999            
82928.857  925.29999            
83017.141  920.59998            
83105.414  920.20001            
83193.674  924.20001            
83281.922  922.79999            
83370.159  917.79999            
83458.383  920.59998            
83546.596  919.90002            
83634.796  919            
83722.985  917.59998            
83811.161  923.09998            
83899.326  919.59998            
83987.478  915.29999            
84075.619  917.20001            
84163.747  919            
84251.864  923.40002            
84339.969  916.09998            
84428.061  916.20001            
84516.142  915.59998            
84604.211  918.59998            
84692.268  918.09998            
84780.312  919.09998            
84868.345  918            
84956.366  918.90002            
85044.375  914.5            
85132.372  917.70001            
85220.357  917.90002            
85308.33  917.40002            
85396.292  920.70001            
85484.241  919.59998            
85572.178  913.79999            
85660.103  916.09998            
85748.017  912.79999            
85835.918  913.09998            
85923.808  915.70001            
86011.685  918.5            
86099.551  913.40002            
86187.404  909.70001            
86275.246  914            
86363.076  913.29999            
86450.894  912            
86538.7  909.59998            
86626.494  910.40002            
86714.276  913.20001            
86802.046  911.59998            
86889.804  910.90002            
86977.55  912.79999            
87065.285  916.20001            
87153.007  911.40002            
87240.718  912.09998            
87328.416  910.5            
87416.103  910.5            
87503.778  921.40002            
87591.44  917.5            
87679.091  912.79999            
87766.73  911.90002            
87854.357  913.90002            
87941.973  914.40002            
88029.576  910.90002            
