Single Spectrum_030_Spec.Data 1 36 2 min             
x       y           
[m<sup>-1</sup>]     [CCD cts]         
5111.5724  777.90002            
5318.2209  777.20001            
5524.8115  778.90002            
5731.3442  780.79999            
5937.8189  784.90002            
6144.2357  788.70001            
6350.5947  796.79999            
6556.8958  805.70001            
6763.139  822            
6969.3245  840.90002            
7175.4521  864.5            
7381.522  895.20001            
7587.5342  930.90002            
7793.4886  969.20001            
7999.3853  987.70001            
8205.2243  1001            
8411.0057  1008.9            
8616.7295  1012.8            
8822.3956  1017            
9028.0042  1023.3            
9233.5552  1032.7            
9439.0486  1037.1            
9644.4846  1023.9            
9849.863  1015.1            
10055.184  1016.4            
10260.447  1019.5            
10465.653  1009.1            
10670.802  1009.7            
10875.893  1010.7            
11080.927  1004.1            
11285.904  1005.1            
11490.823  1016.7            
11695.685  1007.3            
11900.49  1002.9            
12105.237  1009.3            
12309.927  1000.7            
12514.56  1010.3            
12719.136  1007.6            
12923.654  1003.2            
13128.116  1003.7            
13332.52  992.09998            
13536.867  977.70001            
13741.157  972.40002            
13945.391  978.40002            
14149.567  981.09998            
14353.686  983.09998            
14557.748  980.29999            
14761.753  982.20001            
14965.701  977.20001            
15169.592  977.09998            
15373.426  974.29999            
15577.204  970.90002            
15780.924  968.09998            
15984.588  961.20001            
16188.195  956            
16391.745  952.90002            
16595.238  949.70001            
16798.675  951.59998            
17002.054  947.79999            
17205.378  939.59998            
17408.644  941.70001            
17611.854  937.59998            
17815.007  941.59998            
18018.103  937.5            
18221.143  933.40002            
18424.127  934.5            
18627.053  928.5            
18829.923  923.29999            
19032.737  931.29999            
19235.494  934.70001            
19438.195  936.70001            
19640.839  939.90002            
19843.427  931.70001            
20045.959  923.90002            
20248.434  920.40002            
20450.853  921.90002            
20653.215  926            
20855.521  928.70001            
21057.771  926            
21259.964  919.59998            
21462.101  922.09998            
21664.182  921.40002            
21866.207  925.59998            
22068.176  919.79999            
22270.088  920            
22471.945  911.79999            
22673.745  915.79999            
22875.489  914.29999            
23077.177  912.29999            
23278.809  909.59998            
23480.384  909.90002            
23681.904  912            
23883.368  909.09998            
24084.776  910.20001            
24286.128  907.09998            
24487.424  901.79999            
24688.664  900.70001            
24889.848  899.20001            
25090.977  901            
25292.049  897            
25493.066  903.5            
25694.027  907.90002            
25894.932  902.79999            
26095.781  900.79999            
26296.575  901            
26497.312  901.59998            
26697.994  907.40002            
26898.621  903.5            
27099.192  899.90002            
27299.707  900            
27500.167  902            
27700.571  903.09998            
27900.919  901.20001            
28101.212  906.90002            
28301.449  907.29999            
28501.631  907.90002            
28701.757  907.90002            
28901.828  903.79999            
29101.844  910.40002            
29301.804  913            
29501.708  906.90002            
29701.557  906.09998            
29901.351  909.90002            
30101.09  908.40002            
30300.773  906.20001            
30500.401  910.5            
30699.973  911.90002            
30899.491  905.59998            
31098.953  906            
31298.36  905.59998            
31497.712  907.29999            
31697.008  907.5            
31896.25  911.5            
32095.436  906            
32294.567  907.29999            
32493.643  911.5            
32692.664  916.20001            
32891.63  913.59998            
33090.541  906.90002            
33289.397  915            
33488.198  911.5            
33686.944  910.59998            
33885.635  905.20001            
34084.272  909.70001            
34282.853  909.79999            
34481.379  911.40002            
34679.851  908.09998            
34878.267  909.20001            
35076.629  912.20001            
35274.936  912.70001            
35473.189  911.5            
35671.386  913            
35869.529  907.29999            
36067.617  912.90002            
36265.651  914.70001            
36463.629  921.20001            
36661.554  911.79999            
36859.423  912            
37057.238  915.59998            
37254.998  905.70001            
37452.704  907.70001            
37650.355  910.59998            
37847.952  914.09998            
38045.494  909.29999            
38242.982  910.59998            
38440.415  910.70001            
38637.794  911.79999            
38835.118  912.59998            
39032.388  912.09998            
39229.603  910.90002            
39426.765  913.5            
39623.872  911.29999            
39820.924  912            
40017.922  910.09998            
40214.866  912.59998            
40411.756  908.09998            
40608.592  910.20001            
40805.373  911.29999            
41002.1  910.29999            
41198.773  912            
41395.391  914.79999            
41591.956  915.79999            
41788.467  913.90002            
41984.923  918.59998            
42181.325  915.20001            
42377.674  915.5            
42573.968  918.09998            
42770.208  915.79999            
42966.394  915.79999            
43162.527  915.20001            
43358.605  913.5            
43554.629  911.79999            
43750.6  917.40002            
43946.516  912.70001            
44142.379  912.20001            
44338.188  917            
44533.943  919.40002            
44729.644  917.09998            
44925.292  915.79999            
45120.885  920.79999            
45316.425  921.40002            
45511.912  918.20001            
45707.344  919.5            
45902.723  917.90002            
46098.048  924            
46293.32  917.20001            
46488.537  914.79999            
46683.702  920.09998            
46878.812  926.20001            
47073.87  922.20001            
47268.873  919.09998            
47463.823  925.09998            
47658.72  924.59998            
47853.563  924.09998            
48048.352  921.40002            
48243.089  928.5            
48437.771  934.29999            
48632.401  934.40002            
48826.977  931.29999            
49021.499  929            
49215.968  926.20001            
49410.384  926.09998            
49604.747  928.09998            
49799.056  930.79999            
49993.312  932.09998            
50187.515  935.29999            
50381.665  932.5            
50575.761  930.5            
50769.804  938.29999            
50963.795  933.70001            
51157.731  926.59998            
51351.615  935.09998            
51545.446  934            
51739.224  937.09998            
51932.948  937.09998            
52126.62  939.70001            
52320.238  935.29999            
52513.803  940.59998            
52707.316  942            
52900.776  939.29999            
53094.182  941.59998            
53287.536  942            
53480.836  944.09998            
53674.084  937.59998            
53867.279  943.70001            
54060.421  941.90002            
54253.511  938.20001            
54446.547  943.79999            
54639.531  947.40002            
54832.462  952.5            
55025.34  942.40002            
55218.166  944.79999            
55410.939  950.20001            
55603.659  953.40002            
55796.326  947.79999            
55988.941  948.59998            
56181.503  950.59998            
56374.013  949.70001            
56566.47  951            
56758.874  955            
56951.226  957.59998            
57143.525  952.79999            
57335.772  956.09998            
57527.966  963.59998            
57720.108  961.20001            
57912.198  951.29999            
58104.235  957.70001            
58296.219  953.70001            
58488.151  960.29999            
58680.031  952.5            
58871.859  958.5            
59063.634  956.09998            
59255.356  960.20001            
59447.027  954.90002            
59638.645  951.59998            
59830.211  961.20001            
60021.725  972.20001            
60213.186  972.59998            
60404.596  973            
60595.953  977.70001            
60787.258  976.20001            
60978.511  973.70001            
61169.711  982.29999            
61360.86  982            
61551.957  980            
61743.001  973.70001            
61933.994  982.59998            
62124.934  983.59998            
62315.822  977.29999            
62506.659  972.20001            
62697.443  979.29999            
62888.176  974.09998            
63078.857  970.5            
63269.485  979.59998            
63460.062  974.59998            
63650.587  970.29999            
63841.06  974.79999            
64031.482  975.90002            
64221.851  969.79999            
64412.169  969.20001            
64602.435  966.70001            
64792.649  966.79999            
64982.811  963.59998            
65172.922  960.09998            
65362.981  947.90002            
65552.988  942.29999            
65742.944  952.90002            
65932.848  945.40002            
66122.701  939            
66312.501  934.09998            
66502.251  938.90002            
66691.949  932            
66881.595  924.59998            
67071.189  924.59998            
67260.733  922.90002            
67450.224  912.79999            
67639.664  917.79999            
67829.053  917.09998            
68018.391  906            
68207.677  908.70001            
68396.911  908            
68586.094  910.5            
68775.226  907.40002            
68964.307  906.29999            
69153.336  911.40002            
69342.314  903.70001            
69531.24  900.29999            
69720.116  902.29999            
69908.94  895.79999            
70097.713  900.5            
70286.435  897.70001            
70475.105  898.79999            
70663.725  895.40002            
70852.293  897.20001            
71040.81  900.59998            
71229.276  893.5            
71417.691  896            
71606.055  900.20001            
71794.368  898.20001            
71982.63  894            
72170.841  892.40002            
72359.001  894.79999            
72547.109  892.29999            
72735.167  897.29999            
72923.174  895.5            
73111.131  893.09998            
73299.036  891.20001            
73486.89  892            
73674.694  895.40002            
73862.446  896.09998            
74050.148  894            
74237.799  890.5            
74425.399  887.90002            
74612.949  892.79999            
74800.447  890.29999            
74987.896  889.90002            
75175.293  888.5            
75362.639  896.70001            
75549.935  896.79999            
75737.181  889.90002            
75924.375  892.59998            
76111.519  894.40002            
76298.613  894.90002            
76485.656  892            
76672.648  893.40002            
76859.59  889            
77046.481  888.29999            
77233.322  891.90002            
77420.112  889.5            
77606.852  892.40002            
77793.542  892.40002            
77980.181  887.59998            
78166.769  891.20001            
78353.308  889.09998            
78539.795  888.40002            
78726.233  890            
78912.62  887.70001            
79098.957  885.70001            
79285.243  885.59998            
79471.48  884.90002            
79657.666  887.5            
79843.801  892            
80029.887  886.59998            
80215.922  883.79999            
80401.907  887.79999            
80587.842  885.29999            
80773.727  885.40002            
80959.562  880.29999            
81145.347  880.40002            
81331.081  880.79999            
81516.766  887.5            
81702.4  885.09998            
81887.984  879.5            
82073.519  886            
82259.003  887.5            
82444.438  885.20001            
82629.822  882.5            
82815.156  879.79999            
83000.441  884.5            
83185.676  884.20001            
83370.86  891.20001            
83555.995  889.70001            
83741.08  883.40002            
83926.115  890.70001            
84111.101  884.79999            
84296.036  885.90002            
84480.922  883.79999            
84665.758  883.79999            
84850.545  885.5            
85035.281  886.5            
85219.968  884.09998            
85404.605  885.59998            
85589.193  887.70001            
85773.731  886.90002            
85958.219  885.40002            
86142.657  888.09998            
86327.046  890            
86511.386  883.09998            
86695.676  886.70001            
86879.916  888.40002            
87064.107  883.90002            
87248.248  886.5            
87432.34  884.90002            
87616.383  887.5            
87800.375  891.29999            
87984.319  887.40002            
88168.213  889.09998            
88352.058  884.59998            
88535.853  888.29999            
88719.599  883.90002            
88903.296  886.59998            
89086.943  883.5            
89270.541  885.70001            
89454.09  888.70001            
89637.589  889.29999            
89821.039  887.09998            
90004.44  891            
