Single Spectrum_035_Spec.Data 1 RE39 2 min             
x       y           
[m<sup>-1</sup>]     [CCD cts]         
3870.4624  777.5            
4077.4593  777.40002            
4284.398  777.90002            
4491.2787  777.79999            
4698.1013  778.29999            
4904.8658  778.40002            
5111.5724  779.40002            
5318.2209  781.79999            
5524.8115  785            
5731.3442  790.40002            
5937.8189  799.59998            
6144.2357  813.59998            
6350.5947  832.5            
6556.8958  858            
6763.139  898.29999            
6969.3245  958.09998            
7175.4521  1020.7            
7381.522  1105.5            
7587.5342  1201.4            
7793.4886  1291.8            
7999.3853  1354.5            
8205.2243  1420            
8411.0057  1459            
8616.7295  1490.9            
8822.3956  1484.9            
9028.0042  1467.1            
9233.5552  1472.6            
9439.0486  1520.9            
9644.4846  1474.4            
9849.863  1476.9            
10055.184  1464.5            
10260.447  1448.2            
10465.653  1449.7            
10670.802  1441.9            
10875.893  1425.6            
11080.927  1438.5            
11285.904  1441.8            
11490.823  1428.8            
11695.685  1401.2            
11900.49  1394.5            
12105.237  1406            
12309.927  1403.6            
12514.56  1400.2            
12719.136  1398.4            
12923.654  1392.6            
13128.116  1394.7            
13332.52  1393.6            
13536.867  1354.4            
13741.157  1362.6            
13945.391  1343.6            
14149.567  1315.2            
14353.686  1308            
14557.748  1329.1            
14761.753  1313.7            
14965.701  1335.9            
15169.592  1335.1            
15373.426  1331            
15577.204  1315.2            
15780.924  1308.7            
15984.588  1278.1            
16188.195  1266.1            
16391.745  1259            
16595.238  1251.7            
16798.675  1245.3            
17002.054  1245            
17205.378  1237.2            
17408.644  1218            
17611.854  1224.1            
17815.007  1221.8            
18018.103  1216            
18221.143  1204.1            
18424.127  1217.4            
18627.053  1210.3            
18829.923  1200.5            
19032.737  1214.7            
19235.494  1202.2            
19438.195  1213.1            
19640.839  1222.2            
19843.427  1183.1            
20045.959  1183.8            
20248.434  1173.5            
20450.853  1185.4            
20653.215  1180.7            
20855.521  1177.4            
21057.771  1181.9            
21259.964  1171.1            
21462.101  1170.3            
21664.182  1168.5            
21866.207  1169.9            
22068.176  1166.9            
22270.088  1160.4            
22471.945  1143            
22673.745  1146            
22875.489  1148.2            
23077.177  1149.3            
23278.809  1135            
23480.384  1135.5            
23681.904  1129.2            
23883.368  1114.5            
24084.776  1136.6            
24286.128  1135.9            
24487.424  1126.5            
24688.664  1122.7            
24889.848  1124.7            
25090.977  1129.2            
25292.049  1119.1            
25493.066  1110.2            
25694.027  1115.8            
25894.932  1125.7            
26095.781  1118.8            
26296.575  1118.6            
26497.312  1121.7            
26697.994  1128.6            
26898.621  1120.9            
27099.192  1115.5            
27299.707  1122.2            
27500.167  1119.2            
27700.571  1128.8            
27900.919  1143.2            
28101.212  1135.9            
28301.449  1143.2            
28501.631  1133.4            
28701.757  1147.2            
28901.828  1131.7            
29101.844  1134            
29301.804  1131.6            
29501.708  1138.2            
29701.557  1134.6            
29901.351  1136.4            
30101.09  1136            
30300.773  1128            
30500.401  1134.7            
30699.973  1146.8            
30899.491  1147.8            
31098.953  1146.1            
31298.36  1146.4            
31497.712  1129.6            
31697.008  1125.6            
31896.25  1138.5            
32095.436  1127.2            
32294.567  1131.2            
32493.643  1146.2            
32692.664  1132.7            
32891.63  1151.5            
33090.541  1148.4            
33289.397  1133.3            
33488.198  1135.9            
33686.944  1148.4            
33885.635  1136.2            
34084.272  1139.5            
34282.853  1146.3            
34481.379  1141.2            
34679.851  1131.8            
34878.267  1137.5            
35076.629  1153.3            
35274.936  1159.6            
35473.189  1163.2            
35671.386  1155.4            
35869.529  1139.7            
36067.617  1139.6            
36265.651  1155.3            
36463.629  1164.7            
36661.554  1167            
36859.423  1152            
37057.238  1129.4            
37254.998  1131.1            
37452.704  1153.2            
37650.355  1157.7            
37847.952  1147.6            
38045.494  1137.5            
38242.982  1134.6            
38440.415  1144.1            
38637.794  1144.7            
38835.118  1151.1            
39032.388  1142.1            
39229.603  1140.7            
39426.765  1143.5            
39623.872  1145.1            
39820.924  1132.7            
40017.922  1135.6            
40214.866  1153.6            
40411.756  1161.9            
40608.592  1148.4            
40805.373  1141.9            
41002.1  1156.8            
41198.773  1154.8            
41395.391  1158.6            
41591.956  1156.4            
41788.467  1148.8            
41984.923  1153            
42181.325  1145.6            
42377.674  1142.4            
42573.968  1155            
42770.208  1153.8            
42966.394  1145.6            
43162.527  1166.2            
43358.605  1173.7            
43554.629  1151.6            
43750.6  1163.5            
43946.516  1152.4            
44142.379  1145.4            
44338.188  1154.6            
44533.943  1159.8            
44729.644  1162.6            
44925.292  1163.9            
45120.885  1154.7            
45316.425  1149.2            
45511.912  1166.6            
45707.344  1179            
45902.723  1157.5            
46098.048  1156.3            
46293.32  1171.2            
46488.537  1173.7            
46683.702  1184.6            
46878.812  1188.7            
47073.87  1168.4            
47268.873  1167            
47463.823  1171.1            
47658.72  1173            
47853.563  1170.7            
48048.352  1184.4            
48243.089  1199.1            
48437.771  1192.6            
48632.401  1181.4            
48826.977  1190.1            
49021.499  1204.4            
49215.968  1214.5            
49410.384  1198.8            
49604.747  1208.5            
49799.056  1196.8            
49993.312  1183.1            
50187.515  1192.7            
50381.665  1207            
50575.761  1193.9            
50769.804  1203.6            
50963.795  1214.9            
51157.731  1220.7            
51351.615  1196.5            
51545.446  1207.2            
51739.224  1224.6            
51932.948  1215.1            
52126.62  1225.2            
52320.238  1242            
52513.803  1221.1            
52707.316  1210.8            
52900.776  1227.7            
53094.182  1225.8            
53287.536  1230.1            
53480.836  1219.9            
53674.084  1238.6            
53867.279  1241            
54060.421  1219.2            
54253.511  1231.4            
54446.547  1241.7            
54639.531  1225.6            
54832.462  1245.9            
55025.34  1255            
55218.166  1240.5            
55410.939  1243.6            
55603.659  1239.7            
55796.326  1246.2            
55988.941  1258.7            
56181.503  1249.3            
56374.013  1235.7            
56566.47  1243.4            
56758.874  1257.1            
56951.226  1265.9            
57143.525  1272.1            
57335.772  1247.9            
57527.966  1268.6            
57720.108  1252.2            
57912.198  1256.5            
58104.235  1258.1            
58296.219  1275.6            
58488.151  1257.1            
58680.031  1272.2            
58871.859  1251            
59063.634  1259.3            
59255.356  1280.5            
59447.027  1266            
59638.645  1262.9            
59830.211  1266.8            
60021.725  1303.6            
60213.186  1292.3            
60404.596  1296.7            
60595.953  1303.9            
60787.258  1327.7            
60978.511  1316.9            
61169.711  1308.7            
61360.86  1323.4            
61551.957  1323.1            
61743.001  1315.1            
61933.994  1333.2            
62124.934  1319.3            
62315.822  1343.7            
62506.659  1333.5            
62697.443  1323.6            
62888.176  1322.2            
63078.857  1313.4            
63269.485  1312.7            
63460.062  1326.6            
63650.587  1319.9            
63841.06  1331            
64031.482  1331.3            
64221.851  1322.7            
64412.169  1325.4            
64602.435  1338            
64792.649  1334.5            
64982.811  1320.4            
65172.922  1288.6            
65362.981  1277.2            
65552.988  1260.8            
65742.944  1283.5            
65932.848  1275.6            
66122.701  1243.2            
66312.501  1224.6            
66502.251  1215            
66691.949  1216.4            
66881.595  1206.1            
67071.189  1182.8            
67260.733  1189.3            
67450.224  1177            
67639.664  1172.6            
67829.053  1169.1            
68018.391  1155.1            
68207.677  1144.1            
68396.911  1152.7            
68586.094  1155.1            
68775.226  1149.5            
68964.307  1136.5            
69153.336  1129.9            
69342.314  1139.7            
69531.24  1116.1            
69720.116  1121.1            
69908.94  1126.8            
70097.713  1115.6            
70286.435  1119.3            
70475.105  1127.4            
70663.725  1123            
70852.293  1127.1            
71040.81  1121.2            
71229.276  1101.3            
71417.691  1106.7            
71606.055  1125.6            
71794.368  1121.3            
71982.63  1115.9            
72170.841  1116.6            
72359.001  1106.2            
72547.109  1096.1            
72735.167  1113.1            
72923.174  1106.5            
73111.131  1098.5            
73299.036  1090.4            
73486.89  1105.5            
73674.694  1107.2            
73862.446  1104            
74050.148  1104.8            
74237.799  1100.5            
74425.399  1087            
74612.949  1103.7            
74800.447  1097.2            
74987.896  1099.1            
75175.293  1092            
75362.639  1100.5            
75549.935  1099.5            
75737.181  1093.3            
75924.375  1093            
76111.519  1095            
76298.613  1104.4            
76485.656  1110.8            
76672.648  1101.6            
76859.59  1077.3            
77046.481  1089.9            
77233.322  1102.1            
77420.112  1095.8            
77606.852  1097.8            
77793.542  1106.6            
77980.181  1096.7            
78166.769  1093.3            
78353.308  1076.8            
78539.795  1091.4            
78726.233  1091.8            
78912.62  1084.1            
79098.957  1072.6            
79285.243  1080.3            
79471.48  1092.4            
79657.666  1091.6            
79843.801  1075.6            
80029.887  1091            
80215.922  1077            
80401.907  1073.6            
80587.842  1081.8            
80773.727  1079.9            
80959.562  1078.9            
81145.347  1087.8            
81331.081  1074.8            
81516.766  1076            
81702.4  1075.8            
81887.984  1064.9            
82073.519  1070.6            
82259.003  1090.7            
82444.438  1085.3            
82629.822  1069.5            
82815.156  1075.4            
83000.441  1087            
83185.676  1078.1            
83370.86  1079.5            
83555.995  1093.4            
83741.08  1076.6            
83926.115  1088.8            
84111.101  1083.1            
84296.036  1079.3            
84480.922  1070.1            
84665.758  1082.8            
84850.545  1090.8            
85035.281  1094.3            
85219.968  1070.9            
85404.605  1074.9            
85589.193  1082.8            
85773.731  1083.3            
85958.219  1081.3            
86142.657  1090.7            
86327.046  1095.4            
86511.386  1090.1            
86695.676  1093.9            
86879.916  1092.5            
87064.107  1069.3            
87248.248  1068.7            
87432.34  1087.6            
87616.383  1085.4            
87800.375  1083.8            
87984.319  1087.1            
88168.213  1091.7            
88352.058  1090            
88535.853  1075.1            
88719.599  1077.1            
88903.296  1075            
89086.943  1081.2            
89270.541  1076.2            
89454.09  1082.2            
89637.589  1081.9            
89821.039  1083.3            
90004.44  1077.9            
90187.792  1078.5            
90371.094  1094.9            
90554.348  1094.2            
90737.552  1095.5            
90920.707  1083.9            
91103.813  1068.7            
91286.87  1078.9            
91469.877  1072            
91652.836  1055.9            
91835.746  1074.5            
92018.606  1085            
92201.418  1078.3            
92384.18  1078.5            
92566.894  1080.9            
92749.558  1069.2            
92932.174  1065.6            
93114.741  1077            
93297.259  1094.1            
93479.727  1084.6            
93662.147  1079.6            
93844.519  1090.8            
94026.841  1079.4            
94209.115  1067.7            
94391.339  1078.8            
94573.515  1085.2            
94755.642  1082.7            
94937.721  1081            
95119.751  1088.2            
95301.732  1070.8            
95483.664  1075            
95665.547  1076            
95847.382  1075.2            
96029.169  1071.8            
96210.906  1071.5            
96392.596  1070.7            
96574.236  1062.8            
96755.828  1084.5            
96937.371  1081.8            
97118.866  1069.9            
97300.312  1070            
97481.71  1066.7            
97663.06  1067.4            
97844.36  1081            
98025.613  1071            
98206.817  1069.9            
98387.972  1076.2            
98569.08  1077.4            
98750.138  1087.8            
98931.149  1069.8            
99112.111  1082.6            
99293.025  1080.6            
99473.89  1078.5            
99654.707  1068.2            
99835.476  1072.3            
100016.2  1077.7            
100196.87  1083.8            
100377.49  1068.5            
100558.07  1073.8            
100738.6  1083.2            
100919.08  1074.4            
101099.51  1075.5            
101279.89  1064.4            
101460.23  1073.7            
101640.51  1074            
